number density (cm^-3),pressure (erg/cm^3),energy density(erg/cm^3)
4.148342004523027e+31,1.0245778015024502e+25,6.186520960391186e+28
4.668801692283851e+31,1.2039863929220786e+25,6.962817933681473e+28
5.254559343975505e+31,1.4159048879338816e+25,7.83654224638487e+28
5.913807379095176e+31,1.6647691348804718e+25,8.819924873997316e+28
6.655766055271255e+31,1.9544847021855745e+25,9.926724329671642e+28
7.490812422990846e+31,2.2968439112749636e+25,1.1172432516513717e+29
8.430625459257845e+31,2.695797457939974e+25,1.257445265424468e+29
9.48834941002412e+31,3.1634819545945115e+25,1.4152429854968527e+29
1.0678777625904683e+32,3.7158878952097627e+25,1.592846049232479e+29
1.2018559462307214e+32,4.35411461663761e+25,1.7927333571935526e+29
1.3526433137685752e+32,5.106858988688005e+25,2.01770973370839e+29
1.5223487806679234e+32,5.988176119051315e+25,2.270924669950697e+29
1.7133458513495622e+32,7.013056175167815e+25,2.555928947459017e+29
1.928305815076619e+32,8.2213378144292e+25,2.8767085440910487e+29
2.1702351066653798e+32,9.625365449868223e+25,3.237728607874943e+29
2.4425173545492574e+32,1.1269833617861814e+26,3.644071210279476e+29
2.7489607042810415e+32,1.320669052140883e+26,4.101430006491019e+29
3.0938510793409894e+32,1.5444135377709315e+26,4.616172500647255e+29
3.482012124157602e+32,1.8078490379971465e+26,5.195531498886088e+29
3.91887266770549e+32,2.1155589463140043e+26,5.8476167051676814e+29
4.410542651227723e+32,2.4731721218052877e+26,6.581557422101797e+29
4.96389858200945e+32,2.8940134394498945e+26,7.407639928166656e+29
5.5866797083611765e+32,3.3817444170954176e+26,8.337403047239311e+29
6.287596260917143e+32,3.95250018728896e+26,9.383882935919371e+29
7.076451274113991e+32,4.6229392473016334e+26,1.0561742245432955e+30
7.964277691647644e+32,5.397271396263891e+26,1.1887461122819535e+30
8.963492673468321e+32,6.307570680723054e+26,1.337963305658659e+30
1.0088071262454776e+33,7.368512625455034e+26,1.505913280605268e+30
1.1353741839673693e+33,8.600878276311199e+26,1.6949434981279882e+30
1.2778206101865836e+33,1.004880861148129e+27,1.9077083472832377e+30
1.438138663776893e+33,1.1722729199588809e+27,2.147190469601449e+30
1.6185705565885247e+33,1.3679587070179063e+27,2.4167461437279378e+30
1.821639813072787e+33,1.5971793824080177e+27,2.7201552202062046e+30
2.0501865643509665e+33,1.8617273043902055e+27,3.061639047798804e+30
2.307407270351128e+33,2.1722122836088228e+27,3.4460081111116214e+30
2.596899425567506e+33,2.533216833665778e+27,3.8786445995969314e+30
2.922711873698222e+33,2.952250100212387e+27,4.365601437806034e+30
3.2894014348629665e+33,3.443730521543944e+27,4.913719203093435e+30
3.7020966373901816e+33,4.010437368247557e+27,5.5306641213777e+30
4.1665694455279055e+33,4.6721230558884237e+27,6.225097674459554e+30
4.6893159862636613e+33,5.444864638420218e+27,7.006757728190446e+30
5.277647404300453e+33,6.335418730001694e+27,7.88656522685872e+30
5.939792115888609e+33,7.378402706527117e+27,8.876898742041059e+30
6.685010891637798e+33,8.587534381039276e+27,9.991606043283429e+30
7.523726377859999e+33,9.989374492002797e+27,1.1246324046833602e+31
8.467668867931794e+33,1.163004008462264e+28,1.2658694644447e+31
9.530040362437475e+33,1.3516071413250306e+28,1.424843037958811e+31
1.0725699212641787e+34,1.5714630962074265e+28,1.6037922863465589e+31
1.2071367929719972e+34,1.827335942434381e+28,1.8052281755861634e+31
1.3585867066169656e+34,2.1216056037131976e+28,2.0319572736174075e+31
1.5290378440475141e+34,2.4652686185858297e+28,2.287177097885437e+31
1.7208741386490127e+34,2.862137428858008e+28,2.574451474147417e+31
1.9367786170889292e+34,3.3213396941932304e+28,2.8978291386388566e+31
2.1797709241872544e+34,3.857185084875938e+28,3.261861838436515e+31
2.453249555735875e+34,4.470847728321557e+28,3.6716190636303435e+31
2.7610393899360286e+34,5.1844883308497695e+28,4.132873826053337e+31
3.107445182229585e+34,6.01151270037019e+28,4.6520883170592565e+31
3.497311771704056e+34,6.959957438471852e+28,5.236551703311392e+31
3.9360918411194346e+34,8.06339630574687e+28,5.894501923197588e+31
4.429922178250109e+34,9.331288101092046e+28,6.635112568505685e+31
4.9857095051346705e+34,1.079357071485318e+29,7.468818500366763e+31
5.611227075643401e+34,1.249267189493606e+29,8.407374297874344e+31
6.315223392379159e+34,1.4428674546106086e+29,9.46381439460813e+31
7.107544563428655e+34,1.6671872849878025e+29,1.0653111404751505e+32
7.9992720102483515e+34,1.9257098544927155e+29,1.1991942778320393e+32
9.002877452670509e+34,2.2209806183865214e+29,1.3499037641129046e+32
1.0132397338653148e+35,2.562701848019932e+29,1.5195708764553843e+32
1.1403629158352248e+35,2.952821560657274e+29,1.710559312723867e+32
1.2834352388169133e+35,3.4003619579810696e+29,1.9255658000632164e+32
1.4444577154901427e+35,3.917031589924803e+29,2.16762645712782e+32
1.6256824097819892e+35,4.5032270010068695e+29,2.4400917039109676e+32
1.829643934282832e+35,5.179880632393994e+29,2.7468358694477786e+32
2.059194899394209e+35,5.956222950928415e+29,3.0921522537295033e+32
2.3175458100011123e+35,6.808710390310622e+29,3.480888174450518e+32
2.608309967664451e+35,7.701785557034952e+29,3.918542681156159e+32
2.9355540063367572e+35,8.321405324292506e+29,4.411173500151535e+32
3.303854768394762e+35,8.872926026584311e+29,4.96567737179792e+32
3.718363316458303e+35,9.316963448291693e+29,5.589865024221638e+32
4.1848769762662786e+35,9.871369385563677e+29,6.292328874115664e+32
4.7099204182028936e+35,1.0431859889330423e+30,7.083079332117958e+32
5.3008369114822494e+35,1.1070659690809565e+30,7.973100173120655e+32
5.965891027274304e+35,1.1834707272429954e+30,8.974823696607969e+32
6.714384227180395e+35,1.2652327174982501e+30,1.0102412979748613e+33
7.55678495368132e+35,1.3663465591647207e+30,1.1371469447257292e+33
8.504875042005866e+35,1.4809681913369948e+30,1.279993220708266e+33
9.571914501139405e+35,1.6100897121845828e+30,1.4407864184741263e+33
1.0772826968603408e+36,1.7693867619190437e+30,1.6217500252143495e+33
1.2124408432780535e+36,1.9481684002201585e+30,1.82545075430112e+33
1.364556214198036e+36,2.1583961179332665e+30,2.0547326147683573e+33
1.5357562985689143e+36,2.4058454760507136e+30,2.3128107798839423e+33
1.728435504564563e+36,2.689423983328854e+30,2.6033174646924537e+33
1.945288647829887e+36,3.026656820845026e+30,2.930277779321621e+33
2.189348641232149e+36,3.4181701800649564e+30,3.29831621961801e+33
2.4640289132475426e+36,3.874516998704458e+30,3.71260015840567e+33
2.7731711482475016e+36,4.418372753832805e+30,4.178895202109847e+33
3.121099016381452e+36,5.057540560722625e+30,4.703788835211924e+33
3.51267864452334e+36,5.823455919464046e+30,5.294622182579793e+33
3.953386674029924e+36,6.759567128769286e+30,5.959674437040128e+33
4.449386857168149e+36,7.893335106113058e+30,6.708318071002961e+33
5.0076162634909537e+36,9.312126314780257e+30,7.551022700334817e+33
5.635882301845762e+36,1.1054424381677408e+31,8.499664185762569e+33
6.342971914967632e+36,1.3204581805897402e+31,9.56757756037795e+33
7.138774473855084e+36,1.5824699901756733e+31,1.0769723404617616e+34
8.034420090732025e+36,1.8993773733076766e+31,1.2123093836623066e+34
9.042435285043968e+36,2.277369441351004e+31,1.3646692749270173e+34
1.0176918179636588e+37,2.7228825739936435e+31,1.5361926471841994e+34
1.1453735677414261e+37,3.255172558966901e+31,1.7293035017781866e+34
1.2890745376195702e+37,3.8722514851535264e+31,1.9467028107872924e+34
1.4508045325472785e+37,4.602240421870133e+31,2.1914721569387947e+34
1.6328255118176128e+37,5.463042244461398e+31,2.467064452700023e+34
1.8376832248803074e+37,6.458146551691528e+31,2.777322277664174e+34
2.0682428162499872e+37,7.635618236647814e+31,3.12666089439199e+34
2.327728897480843e+37,9.004938139495414e+31,3.5199797312504242e+34
2.619770646655287e+37,1.0602761167423354e+32,3.9628136049766855e+34
2.948452566149038e+37,1.2489248106221799e+32,4.461453549908553e+34
3.318371608571859e+37,1.4670046576808067e+32,5.022857140014808e+34
3.734701469848635e+37,1.7246740571099926e+32,5.655040912624137e+34
4.2032649486452195e+37,2.0284073019061286e+32,6.366935921059932e+34
4.730615384159621e+37,2.3869536407819238e+32,7.168452061825575e+34
5.324128311269244e+37,2.8155668019237706e+32,8.071094717599881e+34
5.992104614925132e+37,3.327667647816588e+32,9.087545574891793e+34
6.743886626512844e+37,3.9361467858887294e+32,1.0232210913857741e+35
7.589988785906241e+37,4.6689596877813816e+32,1.1521451800240277e+35
8.542244696656569e+37,5.6837016684722164e+32,1.2973289748128852e+35
9.613972631033958e+37,7.134683678341534e+32,1.4608937392396183e+35
1.0820161799678543e+38,9.271697137144884e+32,1.6451881165075156e+35
1.2177681991032625e+38,1.2727412916486732e+33,1.852983777067846e+35
1.3705519512575687e+38,1.769289137050204e+33,2.0873255001005918e+35
1.5425042733741531e+38,2.5377122438092914e+33,2.3518938212745026e+35
1.736030094440672e+38,3.684939831104986e+33,2.650868803953941e+35
1.9538360708791725e+38,5.303008154326405e+33,2.9887797387147937e+35
2.198968441902793e+38,7.8804107975328e+33,3.372237078900429e+35
2.474855634284903e+38,1.1605270456770697e+34,3.807319884814674e+35
2.785356212411931e+38,1.7078488573028835e+34,4.3023902552956325e+35
3.1348128442503813e+38,2.558313359333673e+34,4.869147172322641e+35
3.528113037997248e+38,3.7536123818482293e+34,5.516881659789228e+35
3.970757498877967e+38,5.5782093718507415e+34,6.266587646676071e+35
4.468937062131599e+38,8.212106453689945e+34,7.13796637047598e+35
5.02961927816967e+38,1.18342112475226e+35,8.157806503382296e+35
5.660645860890635e+38,1.641080895588911e+35,9.356988102270857e+35
6.370842362064236e+38,2.1845558955997096e+35,1.0769312364598715e+36
7.17014160569413e+38,2.831699707667536e+35,1.2432993389708651e+36
8.069722608714522e+38,3.672910625413362e+35,1.4396838971573728e+36
9.08216693096874e+38,4.883277796793459e+35,1.673595320174526e+36
1.0221634641184007e+39,6.4366050493011605e+35,1.9539141258589168e+36
1.1504062360006466e+39,8.410977599687168e+35,2.2914845969941116e+36
1.2947386149930683e+39,1.0913501843165054e+36,2.699234589156228e+36
1.4571792369467187e+39,1.407540751276309e+36,3.1935219926353175e+36
1.6399999999999917e+39,1.8065801219790003e+36,3.7943381338730547e+36
