number density (cm^-3),pressure (erg/cm^3),energy density(erg/cm^3)
4.4797062524427825e+31,1.137491383221615e+25,6.680767521522954e+28
5.037732522414414e+31,1.337523558812582e+25,7.5131169201291755e+28
5.66527078724255e+31,1.5690825164539648e+25,8.4491844311553e+28
6.370979989505605e+31,1.8418875636029415e+25,9.501896193492307e+28
7.164597695503423e+31,2.1621112563179754e+25,1.0685790146576084e+29
8.057074456828789e+31,2.5342662026142422e+25,1.2017178368646427e+29
9.060724909037832e+31,2.9735114080166647e+25,1.35144695957608e+29
1.0189397692319623e+32,3.484599322506528e+25,1.5198330118409828e+29
1.145866653877627e+32,4.082739439365343e+25,1.709199503111713e+29
1.2886045162987469e+32,4.787804861064665e+25,1.9221623601533644e+29
1.4491228920977572e+32,5.60131888196981e+25,2.161663557041473e+29
1.629636657206097e+32,6.559635987955595e+25,2.4310160961008295e+29
1.8326365893409046e+32,7.678873439051883e+25,2.7339440730320888e+29
2.0609237364291275e+32,8.980694424044005e+25,3.0746054072389532e+29
2.317648066223838e+32,1.0514036882072054e+26,3.457717629556617e+29
2.606351930410605e+32,1.2290836928614908e+26,3.8885854859080474e+29
2.9310189429334245e+32,1.4372569957264875e+26,4.37314434319576e+29
3.296128946976536e+32,1.6815321574122567e+26,4.918085289854394e+29
3.706719829051417e+32,1.9638730483524378e+26,5.5309374243759595e+29
4.16845703311642e+32,2.295917788406036e+26,6.2201788447967615e+29
4.687711733903675e+32,2.682034193186462e+26,6.995326205804506e+29
5.271648748109929e+32,3.13155477667994e+26,7.867075931601616e+29
5.928325396473711e+32,3.6600577911203065e+26,8.84748628008649e+29
6.666802680864486e+32,4.269926190251365e+26,9.950070640226946e+29
7.497270310435295e+32,4.98524253514081e+26,1.1190101327974041e+30
8.43118730198355e+32,5.821113312985922e+26,1.2584712997956182e+30
9.481440094561753e+32,6.78874272447465e+26,1.4153136745679003e+30
1.066252036004627e+33,7.925095390236732e+26,1.5917080972312563e+30
1.1990724963142444e+33,9.241100820668679e+26,1.790083610590551e+30
1.3484380829928226e+33,1.0774791513992888e+27,2.0131925289409932e+30
1.5164097827733306e+33,1.2573443406316873e+27,2.2641224849073066e+30
1.7053053145658588e+33,1.4642922577245845e+27,2.546332526161231e+30
1.9177311099695372e+33,1.707040223652877e+27,2.863726600613206e+30
2.156618277520157e+33,1.9894667128912679e+27,3.2206783760058983e+30
2.425263046917922e+33,2.316801032792285e+27,3.6221318003006484e+30
2.7273722512956997e+33,2.7006215764252846e+27,4.073647301101241e+30
3.067114475104405e+33,3.1432652143602006e+27,4.581441698075255e+30
3.449177573367872e+33,3.659571318100215e+27,5.152559057501171e+30
3.8788333559734217e+33,4.2623105100813455e+27,5.794902103720345e+30
4.362010329529466e+33,4.956161773348131e+27,6.517322499110691e+30
4.9053755005019457e+33,5.768375823328948e+27,7.329846426962277e+30
5.516426368371389e+33,6.708726318602882e+27,8.243683887341483e+30
6.203594378157039e+33,7.799201758088675e+27,9.27147205855472e+30
6.976361259773943e+33,9.07529142693212e+27,1.0427464980506626e+31
7.845389859504876e+33,1.0540256393796544e+28,1.1727582016511964e+31
8.822671268835116e+33,1.224968841910103e+28,1.3189882821031976e+31
9.921690280773518e+33,1.423538056887063e+28,1.4834583581062124e+31
1.1157611456670878e+34,1.6521627653042934e+28,1.6684407460804216e+31
1.2547488370935879e+34,1.919108806270537e+28,1.876503665983363e+31
1.411049892086372e+34,2.2264542751080255e+28,2.110508272532872e+31
1.5868209948446076e+34,2.5827550142929263e+28,2.37369970674312e+31
1.7844874825485628e+34,2.9980505774300203e+28,2.6697280675000697e+31
2.0067768108174953e+34,3.473254773656952e+28,3.002685455266584e+31
2.2567561878794197e+34,4.0270083470140455e+28,3.377198377651318e+31
2.5378748967391895e+34,4.666599674216736e+28,3.7984378706273675e+31
2.8540118893176107e+34,5.402590030032658e+28,4.272211552394462e+31
3.209529309278382e+34,6.259095663851992e+28,4.805118214560813e+31
3.6093326820652956e+34,7.2389855377872515e+28,5.404515489965499e+31
4.058938602668083e+34,8.373462805892323e+28,6.0787161414642765e+31
4.564550855091027e+34,9.686852796066832e+28,6.8370603586797485e+31
5.133146013841295e+34,1.118751480288724e+29,7.690010490523338e+31
5.772569708589503e+34,1.292910730685378e+29,8.64945821098042e+31
6.4916448802882915e+34,1.4926716089122838e+29,9.72861536077218e+31
7.300293522496107e+34,1.7221353724786147e+29,1.0942460047817922e+32
8.209673587725866e+34,1.9879379763901157e+29,1.2307898255167008e+32
9.232332947889303e+34,2.289740769305131e+29,1.3843671473968848e+32
1.0382382533224847e+35,2.638210053240398e+29,1.5571223847651448e+32
1.1675691038726704e+35,3.0382996056475733e+29,1.7514434273596698e+32
1.3130103884687097e+35,3.49376707734774e+29,1.9700174290509903e+32
1.4765689452628433e+35,4.0193596090088586e+29,2.2158963201567046e+32
1.660501599425527e+35,4.618273754784948e+29,2.4924542164567875e+32
1.8673463034290718e+35,5.305455044033556e+29,2.8035414161618584e+32
2.0999571564017685e+35,6.0970289860892655e+29,3.1534875707805543e+32
2.3615437857590214e+35,6.953904612613562e+29,3.547104862644144e+32
2.6557156345098614e+35,7.79633296026037e+29,3.989892990297876e+32
2.986531765327094e+35,8.41097128633261e+29,4.487935167112739e+32
3.3585568685910636e+35,8.940070354965546e+29,5.048035412148027e+32
3.77692424722119e+35,9.390393915189708e+29,5.678036021178795e+32
4.247406647376997e+35,9.935901914327934e+29,6.3865028782043756e+32
4.776495912369774e+35,1.0511296947830871e+30,7.18333817243494e+32
5.3714925588710956e+35,1.1137042328052916e+30,8.079539944783217e+32
6.0406065114149064e+35,1.1919045612386411e+30,9.087371366145393e+32
6.793070385155089e+35,1.2752214432774445e+30,1.0220936810324005e+33
7.639266879984583e+35,1.375556354462633e+30,1.1495745501414549e+33
8.59087204383457e+35,1.4918428353830248e+30,1.2929505180310427e+33
9.66101638193943e+35,1.6211280866204655e+30,1.4542136853323607e+33
1.0864466035096649e+36,1.7812540356044145e+30,1.6355605970452635e+33
1.2217826526868292e+36,1.9612987578986973e+30,1.8395299117654753e+33
1.373977189108296e+36,2.171165474791502e+30,2.0689346328872168e+33
1.5451302341201476e+36,2.4196019611130896e+30,2.3269428211575826e+33
1.7376034036937755e+36,2.703682022392563e+30,2.6171388175160847e+33
1.954052494641315e+36,3.0402847805674306e+30,2.943493074923273e+33
2.197464130017821e+36,3.4315651619028025e+30,3.310554826200463e+33
2.4711969693533542e+36,3.8865079003074114e+30,3.723412715410541e+33
2.7790280523448986e+36,4.4288325797075284e+30,4.187730428942727e+33
3.125204915470894e+36,5.0654195846068153e+30,4.709983210942787e+33
3.5145042006475197e+36,5.827095240262219e+30,5.297377023847434e+33
3.9522975646247966e+36,6.757161498990531e+30,5.958030781841899e+33
4.4446257985581913e+36,7.881645293819163e+30,6.701131785158044e+33
4.998282180477575e+36,9.28761757054402e+30,7.536929991345388e+33
5.620906210773456e+36,1.1010724482936616e+31,8.477049564906231e+33
6.321089024088033e+36,1.3135487428976098e+31,9.53452284887835e+33
7.108491932112865e+36,1.5721078478256687e+31,1.0723971705474045e+34
7.993979732978675e+36,1.8848625934034e+31,1.206198102151835e+34
8.989770626676318e+36,2.256849822567679e+31,1.3567076549248833e+34
1.0109604805082374e+37,2.695878272928842e+31,1.5260140929934317e+34
1.1368934042840124e+37,3.2202109447461595e+31,1.7164772562637521e+34
1.2785134905122136e+37,3.8253163697477444e+31,1.9307221162554414e+34
1.4377748514172736e+37,4.543044626614742e+31,2.171749843133265e+34
1.616875018299398e+37,5.38508441136661e+31,2.4429085532203283e+34
1.8182852636653583e+37,6.361572456897578e+31,2.747937997471561e+34
2.0447847005144322e+37,7.51634878359029e+31,3.091115445209175e+34
2.299498629290659e+37,8.851519808105086e+31,3.4771781407125664e+34
2.58594166162302e+37,1.041518927682108e+32,3.9115095247133717e+34
2.908066215886563e+37,1.2255054954023029e+32,4.400175093021773e+34
3.2703170537393347e+37,1.4379013772057225e+32,4.949906750617107e+34
3.6776926101449925e+37,1.689048550110606e+32,5.568463097107275e+34
4.135813963129321e+37,1.983484101175306e+32,6.264423707967658e+34
4.651002394934008e+37,2.3314990133569553e+32,7.047418373549264e+34
5.230366614777417e+37,2.746519423919003e+32,7.928487183550454e+34
5.881900846745604e+37,3.2407408971062705e+32,8.919791047948469e+34
6.614595136256804e+37,3.829380506878181e+32,1.0035309309933451e+35
7.438559397137774e+37,4.530744795009869e+32,1.1290638076094565e+35
8.36516291094713e+37,5.48776111742819e+32,1.270319868083552e+35
9.40719120339497e+37,6.796129597466193e+32,1.4293220358282466e+35
1.0579022462482085e+38,8.822325331640064e+32,1.6083263244443137e+35
1.189682593262388e+38,1.1941554472543092e+33,1.809963306022026e+35
1.3378785022254763e+38,1.63705175462711e+33,2.03712141904589e+35
1.5045348203412036e+38,2.3575529671911018e+33,2.2934219160132292e+35
1.6919511165279513e+38,3.389496684916061e+33,2.582630396583669e+35
1.9027134114921766e+38,4.897244429407569e+33,2.9093488428507397e+35
2.139729860341027e+38,7.218494750792836e+33,3.2793977319796196e+35
2.4062708800924725e+38,1.0517087546290287e+34,3.698489494525251e+35
2.706014275773194e+38,1.5594731183582167e+34,4.1755164540976045e+35
3.0430959877663142e+38,2.3137233714230053e+34,4.719520105295809e+35
3.4221671606346006e+38,3.3908739627516713e+34,5.340735056476353e+35
3.848458320870163e+38,5.048056328600666e+34,6.057429633621025e+35
4.32785154911262e+38,7.592852118975582e+34,6.889045681317355e+35
4.866961642687469e+38,1.1716827089115338e+35,7.864784201281028e+35
5.4732273883673175e+38,1.8470666937720274e+35,9.02856086367863e+35
6.155014204762195e+38,2.7825992640068407e+35,1.0438582314371161e+36
6.921729570626404e+38,3.8265134360146384e+35,1.2148506655218511e+36
7.783952831792866e+38,4.986567679760651e+35,1.4207390052936445e+36
8.753581177846116e+38,6.476734921699272e+35,1.668486649507048e+36
9.84399380275957e+38,8.396830448462916e+35,1.968273094559445e+36
1.1070236514629873e+39,1.0829735838252831e+36,2.3323312446958774e+36
1.2449229341803327e+39,1.3904312000721123e+36,2.775786545330267e+36
1.399999999999988e+39,1.778164517014855e+36,3.317498217639761e+36
