number density (cm^-3),pressure (erg/cm^3),energy density(erg/cm^3)
9.999999999999999e+31,3.3652589265e+25,1.4901191811995715e+29
1.0860427710687494e+32,3.7621256717415404e+25,1.618363727257692e+29
1.179488900590688e+32,4.204764170933612e+25,1.7576453547488497e+29
1.2809753940423436e+32,4.69928240973258e+25,1.9089176434465477e+29
1.3911940666166301e+32,5.250998780739356e+25,2.0732094797436654e+29
1.5108962592027273e+32,5.8662390278068015e+25,2.2516415537101077e+29
1.6408979601419377e+32,6.5531672869131635e+25,2.4454321803605592e+29
1.7820853676736083e+32,7.3199181519753035e+25,2.6559039508143267e+29
1.9354209309893167e+32,8.174493618232647e+25,2.8844903252508593e+29
2.1019499110760966e+32,9.128609376255817e+25,3.1327552986308605e+29
2.2828075060727953e+32,1.0191809769539306e+26,3.402387675890449e+29
2.4792265897118394e+32,1.1377351284441119e+26,3.69523215223194e+29
2.6925461155979723e+32,1.2700157740292249e+26,4.01328387026399e+29
2.9242202446144192e+32,1.4174555606976194e+26,4.358713189676145e+29
3.1758282576763803e+32,1.581779714193803e+26,4.733877178589472e+29
3.449085321405294e+32,1.7650612274812047e+26,5.1413372781505346e+29
3.7458541801115546e+32,1.9692090690024635e+26,5.583872269009025e+29
4.068157853787811e+32,2.196987754946863e+26,6.064503183571287e+29
4.418193428672811e+32,2.450663158481295e+26,6.586509921709276e+29
4.7983470343935576e+32,2.7332005742902985e+26,7.153454632467373e+29
5.211210109782297e+32,3.0484320376962106e+26,7.769204704771365e+29
5.659597068249448e+32,3.3991534933804986e+26,8.437967296613843e+29
6.146564483134201e+32,3.790051523069234e+26,9.164301276084155e+29
6.675431923815824e+32,4.225470682771209e+26,9.953167335836119e+29
7.24980458462173e+32,4.710838361690317e+26,1.080994874194054e+30
7.873597860789508e+32,5.2504844477762436e+26,1.1740495423105915e+30
8.551064039012816e+32,5.851729804585652e+26,1.2751157357076845e+30
9.28682128451581e+32,6.521457575144527e+26,1.384883382281293e+30
1.0085885122255794e+33,7.267670422142314e+26,1.504101732373956e+30
1.0953702626855755e+33,8.097331795778419e+26,1.633585104955295e+30
1.1896189554333467e+33,9.020795205869615e+26,1.774216791991635e+30
1.2919770668747428e+33,1.0049401885570678e+27,1.9269568902365507e+30
1.4031423538659207e+33,1.1193224030699119e+27,2.092849014501127e+30
1.5238726101964723e+33,1.246640206668081e+27,2.2730249218132074e+30
1.654990832333545e+33,1.388229842452074e+27,2.4687161882947628e+30
1.7973908296408996e+33,1.5457461933214137e+27,2.6812570689064635e+30
1.9520433173167615e+33,1.721102220098976e+27,2.912099627972399e+30
2.120002533584929e+33,1.9160463240101466e+27,3.162821469002646e+30
2.3024134262473466e+33,2.132821333927065e+27,3.435132798079552e+30
2.5005194575875618e+33,2.3738582087335484e+27,3.730895615526306e+30
2.715671080829722e+33,2.6420099113303844e+27,4.052126945068978e+30
2.949334945935578e+33,2.939852483781102e+27,4.401024141236264e+30
3.2031038974937746e+33,3.2710049001058907e+27,4.779966251948693e+30
3.4787078328552506e+33,3.639122638259354e+27,5.191545155031602e+30
3.7780254945326816e+33,4.0480064887226753e+27,5.638571392235997e+30
4.1030972772506555e+33,4.502799357533842e+27,6.124096385492043e+30
4.456139136949943e+33,5.007490365263213e+27,6.651440634185034e+30
4.839557696561021e+33,5.568658665513612e+27,7.224203132534299e+30
5.255966651520226e+33,6.191282590338532e+27,7.846298816077311e+30
5.708204586861963e+33,6.882783159607662e+27,8.521978520403088e+30
6.199354327342911e+33,7.651476254495696e+27,9.255858222045922e+30
6.732763952504539e+33,8.503179064666132e+27,1.0052953022878813e+31
7.312069619929815e+33,9.449737876955422e+27,1.0918708639289913e+31
7.941220352276195e+33,1.0500468122629598e+28,1.185904290328044e+31
8.624504957053589e+33,1.1665070597146955e+28,1.2880379984224464e+31
9.366581262654648e+33,1.2958008945476118e+28,1.3989703223303186e+31
1.017250786993408e+34,1.4391826681047243e+28,1.5194591471452662e+31
1.104777863578187e+34,1.598178981708974e+28,1.6503284090634448e+31
1.1998360123758672e+34,1.7746417599473592e+28,1.7924720713773854e+31
1.3030732277087648e+34,1.9700844443993563e+28,1.9468619649386507e+31
1.4151932591263266e+34,2.1867617101814922e+28,2.11455486077365e+31
1.5369604087393708e+34,2.4266307623669136e+28,2.296694950195033e+31
1.6692047413302643e+34,2.6927240600422822e+28,2.4945295636131944e+31
1.8128277427554151e+34,2.9874113292942414e+28,2.7094102837488596e+31
1.9688084652123972e+34,3.313717619696333e+28,2.942806641028532e+31
2.1382102012628835e+34,3.675060956170824e+28,3.1963155966125423e+31
2.32218773210701e+34,4.074912009044208e+28,3.47166826708517e+31
2.5219951995193523e+34,4.517602535882577e+28,3.7707507721850394e+31
2.7389946551080816e+34,5.0076616642471535e+28,4.095604869474831e+31
2.974665345176074e+34,5.549342731318237e+28,4.448457055393816e+31
3.2306137944772017e+34,6.148788188943254e+28,4.831718607919919e+31
3.5085847576069475e+34,6.8112381229064125e+28,5.248010422330445e+31
3.8104731126810263e+34,7.544033382129588e+28,5.700183188259647e+31
4.1383367783790657e+34,8.353387850775138e+28,6.191327153341888e+31
4.494410742406521e+34,9.247965790017515e+28,6.724804438147601e+31
4.881122297004333e+34,1.023613946175048e+29,7.304264633457325e+31
5.301107585364046e+34,1.1326761633586128e+29,7.933672301519546e+31
5.757229571742336e+34,1.253140414764772e+29,8.617336226555746e+31
6.252597557773997e+34,1.3859081323386792e+29,9.359932392235279e+31
6.790588378022565e+34,1.5325628868017175e+29,1.016654396431471e+32
7.374869419254873e+34,1.6941446967403425e+29,1.1042692613492815e+32
8.00942362035774e+34,1.872553888249218e+29,1.1994373724823373e+32
8.698576623316817e+34,2.069063951816137e+29,1.302810243771288e+32
9.447026260340839e+34,2.2854194562569136e+29,1.4150952574537203e+32
1.0259874578139812e+35,2.5238652807214217e+29,1.5370612884250917e+32
1.1142662617660779e+35,2.7863587619186085e+29,1.6695432513439204e+32
1.2101408186368478e+35,3.075421218261048e+29,1.8134485587405004e+32
1.314264688055767e+35,3.3932166559668095e+29,1.9697610052402443e+32
1.4273476637338911e+35,3.742882785125634e+29,2.1395522181179115e+32
1.5501606120000608e+35,4.12712580855696e+29,2.3239851835165136e+32
1.6835407266581745e+35,4.5493613777811134e+29,2.5243216825918175e+32
1.8283972359869397e+35,5.013505633831404e+29,2.7419347505917827e+32
1.9857176007856982e+35,5.5230230007663405e+29,2.9783129656605134e+32
2.1565742457172886e+35,6.08199886520016e+29,3.2350762657643556e+32
2.3421318698343026e+35,6.695216310007957e+29,3.513983735848334e+32
2.5436553861232774e+35,7.368122370017817e+29,3.816942811434795e+32
2.7625185441892745e+35,8.105127014834813e+29,4.146032368375271e+32
3.0002132948601265e+35,8.912372481184237e+29,4.5035027189093706e+32
3.258359960547195e+35,9.796264351481437e+29,4.891804980290405e+32
3.538718280692137e+35,1.005392774218574e+30,5.313514900362619e+32
3.84319940759453e+35,1.0434777591421852e+30,5.771615230296375e+32
4.173878934393739e+35,1.0810551522192345e+30,6.2691651426910786e+32
4.533011044014456e+35,1.1193877116860561e+30,6.809560276988679e+32
4.923043875526703e+35,1.1592804387097825e+30,7.39648850402615e+32
5.346636212670058e+35,1.2021893000828583e+30,8.033954091915937e+32
5.8066756083047135e+35,1.2479877650368886e+30,8.726307308735858e+32
6.306298068340567e+35,1.2966616846723402e+30,9.478277535006054e+32
6.848909429326092e+35,1.3504308195630925e+30,1.0294989067960278e+33
7.438208575424196e+35,1.407764161791758e+30,1.1182026334584041e+33
8.07821265304103e+35,1.47118266818994e+30,1.2145435933145514e+33
8.773284454991315e+35,1.539929089659383e+30,1.319179961979199e+33
9.528162160873149e+35,1.6145744079060302e+30,1.4328258429826832e+33
1.0347991636387079e+36,1.6972502137065453e+30,1.556256458347898e+33
1.1238361511778068e+36,1.787444941361131e+30,1.6903162922888762e+33
1.2205341278523833e+36,1.8856200492112417e+30,1.83591771231318e+33
1.3255522663967816e+36,1.9939818051568218e+30,1.9940562771876262e+33
1.4396064565940218e+36,2.1123917838526712e+30,2.1658122463445035e+33
1.5634741853678352e+36,2.2419678093390026e+30,2.3523565668035768e+33
1.697999836771339e+36,2.3834116160988163e+30,2.5549645392019714e+33
1.8441004480014295e+36,2.538131441085892e+30,2.775017360880287e+33
2.002771960676595e+36,2.70805780738625e+30,3.014019026309555e+33
2.1750960099920016e+36,2.8931683086055273e+30,3.2735981738704257e+33
2.3622472980322942e+36,3.0945969643896117e+30,3.555530992057095e+33
2.5655016015046583e+36,3.314781251356222e+30,3.8617402151476596e+33
2.786244468479434e+36,3.554582855837696e+30,4.1943164199482387e+33
3.0259806634223794e+36,3.815103656741707e+30,4.555530200314425e+33
3.286344424903694e+36,4.098146902409181e+30,4.9478469758905643e+33
3.569110605908744e+36,4.4051270284373487e+30,5.373945827186791e+33
3.876206772691995e+36,4.7375210802472824e+30,5.836736002985428e+33
4.209726344649869e+36,5.097245128880449e+30,6.33937441996479e+33
4.571942864784661e+36,5.485684436595208e+30,6.885293372451293e+33
4.9653254980387304e+36,5.90550186624798e+30,7.478220066946157e+33
5.392555863148302e+36,6.357520227332736e+30,8.122201474356167e+33
5.856546312756614e+36,6.8472788473983e+30,8.821632242735754e+33
6.360459786398659e+36,7.374972475290949e+30,9.581291368626333e+33
6.907731371691746e+36,7.945830152267057e+30,1.0406358738534033e+34
7.502091720710639e+36,8.56468688171848e+30,1.1302469047479935e+34
8.147592481172504e+36,9.237708913378054e+30,1.227573824662844e+34
8.848633915791494e+36,9.973046840823375e+30,1.3332811677138278e+34
9.609994898079115e+36,1.0779801527466822e+31,1.4480906045404093e+34
1.0436865489066388e+37,1.167439378562798e+31,1.5727859595958485e+34
1.1334882317017456e+37,1.2675465234019386e+31,1.7082184935327563e+34
1.231016700131181e+37,1.380695194522594e+31,1.855313038632703e+34
1.3369367882423749e+37,1.510277750561682e+31,2.0150729357487246e+34
1.4519705342465032e+37,1.6609095735851671e+31,2.1885938537939486e+34
1.576902102523245e+37,1.8383072646486977e+31,2.37705869563128e+34
1.7125831291284819e+37,2.0505134212150235e+31,2.5817553909764745e+34
1.8599385272442865e+37,2.307436224895052e+31,2.8040841996154807e+34
2.0199727921459138e+37,2.622742307505351e+31,3.045569026546343e+34
2.1937768486656274e+37,3.0137023016938354e+31,3.3078593925585085e+34
2.382535487831287e+37,3.276677443664966e+31,3.593170372665921e+34
2.587535443373925e+37,3.5574935479338205e+31,3.903165190815566e+34
2.8101741631604233e+37,3.8622711250197847e+31,4.239981525524313e+34
3.0519693353445506e+37,4.26844255099624e+31,4.605782676697006e+34
3.314569234174445e+37,5.047689232430736e+31,5.002496997496039e+34
3.5997639559820367e+37,5.9679299460566335e+31,5.433421106053171e+34
3.909497621948135e+37,7.054568603519846e+31,5.901512038663183e+34
4.2458816308272387e+37,8.995941158990848e+31,6.410007789282129e+34
4.611209051973517e+37,1.1629681609255915e+32,6.962394414598388e+34
5.007970256782618e+37,1.4842566146968754e+32,7.56246902019454e+34
5.438869895106072e+37,1.980680775743051e+32,8.214714853730673e+34
5.906845332363397e+37,2.5859988270215804e+32,8.923359941701346e+34
6.415086673034452e+37,3.437054464441608e+32,9.693781850983174e+34
6.967058507028541e+37,4.504753428644617e+32,1.0531090987024647e+35
7.566523527171381e+37,5.973130117475074e+32,1.144180296201731e+35
8.217568178806094e+37,7.841462930563572e+32,1.2432083429519774e+35
8.924630516356947e+37,1.0273329563985971e+33,1.3509389599010771e+35
9.692530456749024e+37,1.3476434502453844e+33,1.4682007279918943e+35
1.0526502635915963e+38,1.7603023137019525e+33,1.5958556345057313e+35
1.1432232092372666e+38,2.2925367128876773e+33,1.7348940996263343e+35
1.24158930211015e+38,2.978343294704374e+33,1.8864154448127596e+35
1.3484190861930219e+38,3.8603311914149655e+33,2.0516443147003402e+35
1.4644408009310605e+38,4.991063914878744e+33,2.231945901202003e+35
1.5904453455093078e+38,6.435152359569967e+33,2.428846667995511e+35
1.7272916702703234e+38,8.284146485333625e+33,2.644133476986771e+35
1.8759126320243505e+38,1.0630831601347727e+34,2.8797186358143133e+35
2.037321353166597e+38,1.3602647364799332e+34,3.137858421187443e+35
2.2126181279505856e+38,1.7342180550976773e+34,3.4210519290528875e+35
2.402997922996403e+38,2.2030184846975397e+34,3.732229053189249e+35
2.609758523163463e+38,2.78736134205314e+34,4.074712753785151e+35
2.834309378316734e+38,3.5109169819924238e+34,4.4522757399912905e+35
3.0781812112932508e+38,4.400748112193187e+34,4.8692014403936674e+35
3.3430364525646813e+38,5.4885463778584825e+34,5.3304941252792235e+35
3.6306805727271885e+38,6.809608358350693e+34,5.841782227676075e+35
3.943074390070111e+38,8.404161652208268e+34,6.409570502896482e+35
4.2823474371219625e+38,1.0317438351508479e+35,7.041233259806685e+35
4.650812477291094e+38,1.2600357513266936e+35,7.74526501100126e+35
5.0509812705583345e+38,1.53106030193221e+35,8.531272363171511e+35
5.4855816956935265e+38,1.8513408159489094e+35,9.41025959587504e+35
5.9575763457150076e+38,1.9564117184691357e+35,1.0381405595545705e+36
6.470182723353961e+38,2.1790414058616073e+35,1.1452556737772883e+36
7.026895174192483e+38,2.700957032202312e+35,1.2646869090200494e+36
7.631508706989628e+38,3.33374725323101e+35,1.39934174027077e+36
8.288144863574304e+38,4.099220376757128e+35,1.5515714139923484e+36
9.00127981465546e+38,5.02322594251335e+35,1.724138854158767e+36
9.775774873073614e+38,6.136306246498991e+35,1.9202870514483147e+36
1.0616909632497124e+39,7.474430132617868e+35,2.1438133896087826e+36
1.1530417957463675e+39,9.079955004099552e+35,2.3991894298424322e+36
1.2522527070104718e+39,1.100256852015653e+36,2.691658579896915e+36
1.3599999999999953e+39,1.3300490694653175e+36,3.027381383065614e+36
