number density (cm^-3),pressure (erg/cm^3),energy density(erg/cm^3)
9.999999999999999e+31,3.4901520618600004e+25,1.49066747091e+29
1.0865776309428709e+32,3.905167505893102e+25,1.6197581383829096e+29
1.1806509480654218e+32,4.368582843972092e+25,1.760028585235801e+29
1.2828689101193804e+32,4.886445229617997e+25,1.9124468676391488e+29
1.3939366611677795e+32,5.4648823784673145e+25,2.0780677047855772e+29
1.5146203949761013e+32,6.1111746899786815e+25,2.2580324000112863e+29
1.645752640550888e+32,6.832741428927235e+25,2.4535826204019194e+29
1.788238005287758e+32,7.63817336509357e+25,2.666070606083523e+29
1.9430594153475773e+32,8.538553338466206e+25,2.896962111583417e+29
2.1112848963096107e+32,9.543261822466902e+25,3.147853361047189e+29
2.2940749408775616e+32,1.0664899326693433e+26,3.42047379151301e+29
2.4926905144641474e+32,1.1916469022683349e+26,3.716708622691593e+29
2.7085017538802204e+32,1.3313826096043704e+26,4.038601329058856e+29
2.9429974191357807e+32,1.4874824862173216e+26,4.3883757286113224e+29
3.19779516355554e+32,1.6614882966635528e+26,4.768445822136332e+29
3.474652693056748e+32,1.855850682266382e+26,5.181438388664971e+29
3.7754798915708695e+32,2.0724953223926324e+26,5.630205936421189e+29
4.1023519962555226e+32,2.31433239458854e+26,6.117845842901866e+29
4.457523913385084e+32,2.5842487730565144e+26,6.647726403238209e+29
4.843445773677158e+32,2.8851941574307992e+26,7.223508106713556e+29
5.262779834362389e+32,3.221061720749873e+26,7.849164972261083e+29
5.718418844595399e+32,3.595438587635058e+26,8.529022974212614e+29
6.2135060008995386e+32,4.0129852993057004e+26,9.26777424380313e+29
6.751456630306733e+32,4.478828008865163e+26,1.0070522684301197e+30
7.33598175077223e+32,4.997970765640633e+26,1.0942815391650084e+30
7.971113671394223e+32,5.5768744227942024e+26,1.1890676324612927e+30
8.661233809039866e+32,6.22282766803679e+26,1.2920652664359547e+30
9.411102913268835e+32,6.942112509739741e+26,1.4039860911945223e+30
1.0225893908059205e+33,7.744568527752074e+26,1.5256034572659097e+30
1.1111227576892106e+33,8.638123817587161e+26,1.6577574885382324e+30
1.2073211337366521e+33,9.634008719367698e+26,1.801361127589258e+30
1.3118481372828323e+33,1.0744752255762008e+27,1.9574061788526896e+30
1.4254248411655984e+33,1.1981833416886336e+27,2.1269718400808564e+30
1.548834747000834e+33,1.3360112726972707e+27,2.3112304292330647e+30
1.6829291901181673e+33,1.4895128378685804e+27,2.5114533667181494e+30
1.8286332124432026e+33,1.6606019772254235e+27,2.72902556124108e+30
1.9869519438399874e+33,1.8511803540621112e+27,2.96545085473215e+30
2.1589775359349858e+33,2.0632159512126178e+27,3.222361197780982e+30
2.345896696255114e+33,2.2994836241479747e+27,3.501533466564727e+30
2.548998874653589e+33,2.562706661421532e+27,3.804899660496063e+30
2.7696851584971414e+33,2.855688746231325e+27,4.1345518358539586e+30
3.009477937977454e+33,3.1819105122837984e+27,4.4927731404418707e+30
3.270031408222378e+33,3.54484900028023e+27,4.882038057059636e+30
3.5531429806550515e+33,3.948796591608309e+27,5.305037901714501e+30
3.860765682321458e+33,4.3985926935045546e+27,5.76469686618513e+30
4.195021628722387e+33,4.898961259330946e+27,6.264192972590442e+30
4.558216663091276e+33,5.455949977182121e+27,6.806979448932763e+30
4.9528562631060353e+33,6.075194878084004e+27,7.396811156951526e+30
5.381662824766318e+33,6.764649065938741e+27,8.037764476647661e+30
5.847594442667905e+33,7.530822224465005e+27,8.734274774561513e+30
6.353865316228792e+33,8.383049594187429e+27,9.491156265521152e+30
6.903967922637952e+33,9.331013117786671e+27,1.0313644747365242e+31
7.501697109485524e+33,1.0384171369839535e+28,1.1207428077442031e+31
8.151176273275763e+33,1.1556164367324704e+28,1.2178691580549627e+31
8.856885804413717e+33,1.2857552402363128e+28,1.3234150216697613e+31
9.623693994891402e+33,1.430476114443683e+28,1.4381106588961575e+31
1.0456890621888236e+34,1.59117526564262e+28,1.5627490869527139e+31
1.1362223438960043e+34,1.7698424539182539e+28,1.6981945557130957e+31
1.2345937826548765e+34,1.9683333959076025e+28,1.8453815566602262e+31
1.3414819875339332e+34,2.188739618588152e+28,2.0053304810522465e+31
1.4576243199671555e+34,2.4334035340438164e+28,2.179147714173809e+31
1.5838219803946248e+34,2.705336839311124e+28,2.368035457308063e+31
1.720945535292438e+34,3.006722297669105e+28,2.573302092835796e+31
1.8699409227197678e+34,3.341591426056926e+28,2.796366985060788e+31
2.0318359778119718e+34,3.713034431325933e+28,3.0387754455139044e+31
2.207747523235424e+34,4.125249360872306e+28,3.3022047779782827e+31
2.398889073517138e+34,4.582735504190027e+28,3.5884785215459806e+31
2.6065792063969904e+34,5.08976584774074e+28,3.8995797048393663e+31
2.8322506589517907e+34,5.652270168225877e+28,4.237661436801281e+31
3.077460211240222e+34,6.276123262805488e+28,4.605065874472959e+31
3.3438994256503477e+34,6.966851627880465e+28,5.004334994382396e+31
3.6334063160343818e+34,7.733022357797697e+28,5.4382347500996025e+31
3.9479780271295035e+34,8.581442458241836e+28,5.909770974173807e+31
4.289784611732886e+34,9.47186952588127e+28,6.422134925241188e+31
4.661184000671902e+34,1.0505738798578754e+29,6.979015341777753e+31
5.064738268838889e+34,1.1650204612872743e+29,7.584200555646877e+31
5.503231309500658e+34,1.291648833077987e+29,8.24188844135307e+31
5.979688038807859e+34,1.4318314587014028e+29,8.9566315481674e+31
6.497395262985264e+34,1.5867821890442685e+29,9.73338593697613e+31
7.059924352153962e+34,1.7581224229358602e+29,1.0577529462614975e+32
7.6711558771993355e+34,1.9476557376894153e+29,1.1494913572005975e+32
8.335306379640735e+34,2.1570038700450825e+29,1.2491896852577448e+32
9.056957459173029e+34,2.3883471604046805e+29,1.3575388253287387e+32
9.841087379538593e+34,2.6439027945915734e+29,1.4752895993718374e+32
1.069310541076083e+35,2.926063626633909e+29,1.6032589092875474e+32
1.1618889144646899e+35,3.237492223963746e+29,1.742331544194811e+32
1.2624825040978266e+35,3.581228931470398e+29,1.893476104071615e+32
1.37178524840944e+35,3.9602143542310356e+29,2.0577351023857277e+32
1.4905511653791074e+35,4.378490659631511e+29,2.2362513557365224e+32
1.619599554076766e+35,4.839483629521641e+29,2.4302612245711736e+32
1.7598206465448627e+35,5.347381407535208e+29,2.6411087019687367e+32
1.9121817490070685e+35,5.906614405118342e+29,2.8702580153879012e+32
2.0777339147682963e+35,6.522459083095555e+29,3.1192983319202044e+32
2.257619194838592e+35,7.20053678304938e+29,3.38995624815011e+32
2.4530785162988693e+35,7.947199261447588e+29,3.6841092104953585e+32
2.6654602427568777e+35,8.594698883887487e+29,4.0037950772856166e+32
2.8962294759471787e+35,8.86849738115512e+29,4.3512108138225526e+32
3.1469781626415983e+35,9.197320261241247e+29,4.7287376153504296e+32
3.419436076592057e+35,9.537017728981344e+29,5.138978561689796e+32
3.7154827512639824e+35,9.900357836546313e+29,5.584771518834902e+32
4.0371604456775184e+35,1.029009517595076e+30,6.0691911264873266e+32
4.386688232800544e+35,1.0715754844680965e+30,6.595588921263742e+32
4.766477307681384e+35,1.1187457810311746e+30,7.167598495650677e+32
5.1791476209233915e+35,1.1707929366136777e+30,7.789176066960354e+32
5.627545952246346e+35,1.2281271596692714e+30,8.464617824770862e+32
6.114765548813977e+35,1.293245456122102e+30,9.198588483034655e+32
6.6441674638013745e+35,1.3652414209781867e+30,9.99616740808784e+32
7.219403742405001e+35,1.4460716437846707e+30,1.0862863761193795e+33
7.844442615242525e+35,1.5366603206422296e+30,1.1804672503402205e+33
8.523595872937522e+35,1.6384269471944518e+30,1.2828105533120511e+33
9.261548610730885e+35,1.7529535308610023e+30,1.3940238348800134e+33
1.0063391548310201e+36,1.8823545422843578e+30,1.5148761911343358e+33
1.093465614781341e+36,2.0271182253437906e+30,1.6462043925726853e+33
1.1881352772265996e+36,2.1908086706636942e+30,1.7889147347284603e+33
1.29100121476853e+36,2.3754534414158425e+30,1.9439954166306198e+33
1.4027730414875572e+36,2.5841265906968167e+30,2.112521377049776e+33
1.5242218081700763e+36,2.819316477184292e+30,2.2956576113807625e+33
1.6561853213529e+36,3.0843394269180494e+30,2.49466935349837e+33
1.799573922877992e+36,3.383616752819958e+30,2.710936515001407e+33
1.955376769827337e+36,3.7209618417872504e+30,2.945954606498645e+33
2.1246686581597124e+36,4.102063573545873e+30,3.2013525004613777e+33
2.3086174371217485e+36,4.531221645947567e+30,3.478895065607986e+33
2.5084920655811522e+36,5.0157814348975533e+30,3.7805089925595536e+33
2.7256713658581563e+36,5.562417851600604e+30,4.10827826906957e+33
2.9616535354429755e+36,6.178710510407681e+30,4.4644766907306224e+33
3.2180664822152067e+36,6.872800840352369e+30,4.851569530961392e+33
3.496679054462058e+36,7.655356293453901e+30,5.272239891935586e+33
3.79941324316494e+36,8.536266669881779e+30,5.72940465814e+33
4.1283574407311317e+36,9.528351201394157e+30,6.226231062930436e+33
4.485780847635007e+36,1.0644897658548466e+31,6.766160511371083e+33
4.874149126352149e+36,1.190109488779549e+31,7.352940303948714e+33
5.2961414105739826e+36,1.3312629235901536e+31,7.990637743304546e+33
5.754668787039914e+36,1.4900069266080361e+31,8.6836738532793e+33
6.252894377482714e+36,1.6683455778143161e+31,9.436857168357567e+33
6.794255159221167e+36,1.8686046279184486e+31,1.0255415465215276e+34
7.382485674927913e+36,2.0933977895710567e+31,1.1145025141128147e+34
8.021643795132855e+36,2.345615480667805e+31,1.2111860191712315e+34
8.716138711183039e+36,2.6285397551070736e+31,1.3162634988409673e+34
9.470761351766714e+36,2.9458041756603575e+31,1.4304642804971922e+34
1.0290717432827977e+37,3.301451176413174e+31,1.5545819161367208e+34
1.1181663368864729e+37,3.7000824080381e+31,1.689477624217686e+34
1.214974529334172e+37,4.146869540650827e+31,1.8360880478359408e+34
1.3201641457398544e+37,4.647626221840578e+31,1.9954325035409145e+34
1.4344608299337297e+37,5.2090104637011455e+31,2.1686207025699853e+34
1.5586530502697367e+37,5.838628617298267e+31,2.356853629799126e+34
1.6935975388239702e+37,6.544983605097229e+31,2.5614410941633236e+34
1.8402252015060266e+37,7.338425153250539e+31,2.783806987472217e+34
1.9995475398537854e+37,8.230728207148434e+31,3.0254973911754694e+34
2.172663628811972e+37,9.2358546889294e+31,3.2881938878788363e+34
2.360767698630254e+37,1.0370086509732153e+32,3.5737286450936144e+34
2.565157373184115e+37,1.1653902633533297e+32,3.8840882836961518e+34
2.7872426215500333e+37,1.3111279683508293e+32,4.221438161835774e+34
3.0285554845868333e+37,1.477355562678655e+32,4.58813163247216e+34
3.2907606436214e+37,1.6678592515276005e+32,4.986727537848659e+34
3.5756669041461783e+37,1.8874688976829687e+32,5.420014263567113e+34
3.8852396737479835e+37,2.142464686752069e+32,5.891022202761003e+34
4.2216145203463374e+37,2.4408415313306022e+32,6.403053833603617e+34
4.587111904271948e+37,2.566719581915685e+32,6.960043757348862e+34
4.984253185813655e+37,2.71003926235931e+32,7.565427318667137e+34
5.415778018660857e+37,3.093476160792085e+32,8.222927366577668e+34
5.884663249228991e+37,3.55423683144374e+32,8.93771997096298e+34
6.394143452243815e+37,4.1130499536993604e+32,9.714833963646351e+34
6.947733244247955e+37,4.798254333804477e+32,1.0559763163659809e+35
7.54925152895797e+37,5.645172145621936e+32,1.1478505582274724e+35
8.202847841726998e+37,6.701470109228028e+32,1.2477610318444674e+35
8.913030974848563e+37,8.026985718514894e+32,1.3564236596518236e+35
9.684700081171381e+37,9.701144628867211e+32,1.4746232782216736e+35
1.0523178470591426e+38,1.1824546572697084e+33,1.603219496329022e+35
1.1434250332564259e+38,1.4519538736803845e+33,1.743156710345365e+35
1.2424200637965408e+38,1.7860676086859884e+33,1.8954679212839363e+35
1.3499858495559358e+38,2.2099688858259137e+33,2.06129412873243e+35
1.4668644262168877e+38,2.753195537370407e+33,2.2418914612184803e+35
1.59386207315312e+38,3.451933239850375e+33,2.4386585468730373e+35
1.7318548754964103e+38,4.351894190533608e+33,2.6531477792212158e+35
1.88179476775375e+38,5.511041603800432e+33,2.8870933126514026e+35
2.0447161006665594e+38,7.002886780731138e+33,3.142430752752414e+35
2.2217427766130152e+38,8.920591897065491e+33,3.421343321279331e+35
2.4140960027766066e+38,1.1382035133748237e+34,3.726285502885578e+35
2.62310271556566e+38,1.453619914674663e+34,4.060041373267755e+35
2.8502047343991455e+38,1.8571189000541237e+34,4.425786950338892e+35
3.096968708005579e+38,2.3724161209810115e+34,4.8271460339445496e+35
3.3650969218489056e+38,3.029505072216383e+34,5.268300745163852e+35
3.656439041235731e+38,3.8660125738331234e+34,5.7540760903699486e+35
3.973004871112944e+38,4.929283593453229e+34,6.290075902375473e+35
4.31697822057839e+38,6.278984602703921e+34,6.882858310405233e+35
4.690731967748037e+38,7.990505775143131e+34,7.540143982570486e+35
5.0968444289036535e+38,1.0157921303570384e+35,8.271007615143914e+35
5.5381171448425014e+38,1.290074131036459e+35,9.086288707819799e+35
6.0175942071270624e+38,1.6368481672658731e+35,9.998862324500905e+35
6.5385832575556675e+38,2.0750598791769818e+35,1.102423211507118e+36
7.104678305717558e+38,2.628485971604485e+35,1.2181016298832548e+36
7.719784522037793e+38,3.327320389090387e+35,1.349187033073641e+36
8.38814517734527e+38,4.20935243785138e+35,1.4984165388291896e+36
9.114370914804691e+38,5.322804107318274e+35,1.6691618154050654e+36
9.903471556143089e+38,6.727841701821094e+35,1.8655150021870205e+36
1.0760890661584065e+39,8.501016191030847e+35,2.0925512509276077e+36
1.1692543081899277e+39,1.0738139904643716e+36,2.356491370736393e+36
1.2704855761627573e+39,1.3560376457333892e+36,2.6650605666439716e+36
1.3804812074940173e+39,1.7118974218928888e+36,3.027777745649132e+36
1.5000000000000033e+39,2.1605629387472833e+36,3.4565573685522357e+36
