number density (cm^-3),pressure (erg/cm^3),energy density(erg/cm^3)
9.999999999999999e+31,3.4919753427e+25,1.4906227700880002e+29
1.0872612603371893e+32,3.910113468967388e+25,1.6207294451587856e+29
1.1821370482300134e+32,4.378164429783533e+25,1.7621916508870192e+29
1.285291816949849e+32,4.901478697256629e+25,1.916002177407379e+29
1.397448000797969e+32,5.486239273971098e+25,2.08324101325067e+29
1.5193910746032856e+32,6.140788215168267e+25,2.2650788730827402e+29
1.6519750547182446e+32,6.871193317122293e+25,2.462787996851771e+29
1.796128480038556e+32,7.6886103628144994e+25,2.6777579604307585e+29
1.9528609149342407e+32,8.601823447356383e+25,2.9114931155376366e+29
2.1232700196346397e+32,9.621953063130797e+25,3.1656339155744412e+29
2.308549237584127e+32,1.0762118383367461e+26,3.441958698727547e+29
2.509996153606176e+32,1.2035942621705612e+26,3.742408464625405e+29
2.7290215814113478e+32,1.3459364707392328e+26,4.0690860945273424e+29
2.967159444092692e+32,1.5048816317301102e+26,4.424284482289535e+29
3.2260775168056145e+32,1.6824619468738624e+26,4.8104920888513455e+29
3.507589106867543e+32,1.8807628037678683e+26,5.230416172443781e+29
3.8136657530778006e+32,2.102342369023314e+26,5.6870028637965084e+29
4.1464510331961466e+32,2.3495630766007785e+26,6.183451840709322e+29
4.508275576279284e+32,2.6257473666279954e+26,6.723245361730666e+29
4.901673385012782e+32,2.934008726722967e+26,7.310165916937913e+29
5.3293995823502545e+32,3.278207662080355e+26,7.948330722549097e+29
5.794449706746629e+32,3.662645085592918e+26,8.642215791757697e+29
6.300080691117798e+32,4.091524257998004e+26,9.396683810385126e+29
6.849833672450728e+32,4.570431661256547e+26,1.0217026597754677e+30
7.447558791808896e+32,5.104184177533725e+26,1.1109000007573176e+30
8.097442158417457e+32,5.7007624188718855e+26,1.207885716821812e+30
8.804035166668453e+32,6.365981498688785e+26,1.3133397898054354e+30
9.57228637136488e+32,7.108347770479805e+26,1.428002259229526e+30
1.0407576144438681e+33,7.935944341924618e+26,1.5526766740730576e+30
1.1315754355857667e+33,8.859628511322473e+26,1.6882393416167273e+30
1.2303181342615847e+33,9.890637166846912e+26,1.8356381043670655e+30
1.33767724527295e+33,1.1039953152742345e+27,1.9959095899507288e+30
1.4544046476198471e+33,1.2320881875534311e+27,2.1701768633115304e+30
1.581317830211421e+33,1.3749944656950238e+27,2.3596637564777673e+30
1.7193056170693393e+33,1.534369780859114e+27,2.565696927576163e+30
1.8693343921196186e+33,1.7118804228123618e+27,2.789724995468619e+30
2.0324548671676307e+33,1.9100428486703175e+27,3.033317906606626e+30
2.2098094404551327e+33,2.1306818899413695e+27,3.298184611420873e+30
2.402640197334267e+33,2.3767866341155258e+27,3.5861853119536337e+30
2.6122976090904484e+33,2.6510278813391e+27,3.8993395751237297e+30
2.8402499908355075e+33,2.956542250795338e+27,4.2398449711439606e+30
3.0880937847085047e+33,3.297311158536466e+27,4.6100926815658924e+30
3.3575647404016095e+33,3.6764090827310654e+27,5.012678926638244e+30
3.650550071312762e+33,4.099066157244027e+27,5.45042955665443e+30
3.96910167145953e+33,4.56985494096321e+27,5.926420014120452e+30
4.3154504857175334e+33,5.093883692074874e+27,6.443989289893199e+30
4.692022134023982e+33,5.677972266303391e+27,7.006769482515509e+30
5.1014538989689043e+33,6.327675957977228e+27,7.618712154532616e+30
5.546613195745e+33,7.051322865912623e+27,8.284113430583582e+30
6.030617653808593e+33,7.85767302648201e+27,9.007645925172002e+30
6.556856950891636e+33,8.753903434336758e+27,9.794389727439854e+30
7.129016552277099e+33,9.751667032665709e+27,1.0649867024484977e+31
7.751103521593483e+33,1.086239060609962e+28,1.1580087651722335e+31
8.427474583891759e+33,1.209794428414077e+28,1.259158181792979e+31
9.162866637541785e+33,1.3472740746040496e+28,1.369145588861828e+31
9.962429928635267e+33,1.5001611159189405e+28,1.48874303906332e+31
1.0831764120228914e+34,1.6701187113792516e+28,1.618791096106949e+31
1.1776957509035238e+34,1.8592900605592118e+28,1.7602026119492509e+31
1.2804629664211174e+34,2.0696201836397665e+28,1.913971373566238e+31
1.3921977786861206e+34,2.303204500179386e+28,2.0811778663376702e+31
1.513682711492907e+34,2.5628792173249734e+28,2.2629970517557278e+31
1.6457685726483924e+34,2.851655198871134e+28,2.4607043282769743e+31
1.7893804125210285e+34,3.172249220510037e+28,2.6756919179960807e+31
1.945524002540293e+34,3.528504244998247e+28,2.9094688587491917e+31
2.1152928790182122e+34,3.924074210102597e+28,3.1636779293668635e+31
2.2998760016236234e+34,4.363648978474487e+28,3.440105559185108e+31
2.5005660801445564e+34,4.851830825501742e+28,3.740697297118705e+31
2.7187686278543955e+34,5.393119966831064e+28,4.067561582645218e+31
2.9560118048861815e+34,5.99400251238506e+28,4.422999498884439e+31
3.21395712055216e+34,6.6611135333315026e+28,4.809508577659876e+31
3.494411069561225e+34,7.401008813096507e+28,5.229805640532734e+31
3.799337783627364e+34,8.221401891519679e+28,5.68684888694946e+31
4.130872787073391e+34,9.13166725652961e+28,6.183847582075978e+31
4.491337952766013e+34,1.0086869684317529e+29,6.724216334613646e+31
4.883257763124628e+34,1.119653353923548e+29,7.311909755230452e+31
5.3093769900862465e+34,1.2427259757496345e+29,7.95098797763928e+31
5.772679917846446e+34,1.3790732798073657e+29,8.64594836973911e+31
6.276411243000909e+34,1.5298669749198024e+29,9.401675108074791e+31
6.824098798459674e+34,1.6969620201157177e+29,1.0223486386968724e+32
7.419578260278765e+34,1.8818377099676064e+29,1.1117166160509414e+32
8.067020010441101e+34,2.086365540122202e+29,1.2088997541206024e+32
8.77095834371752e+34,2.312648301863198e+29,1.3145822116001227e+32
9.536323223155296e+34,2.562978912653027e+29,1.4295074545243892e+32
1.0368474806590632e+35,2.839513237992884e+29,1.5544838800103373e+32
1.127324098598813e+35,3.1453188194306843e+29,1.690392842330913e+32
1.2256958202510316e+35,3.4828694255112626e+29,1.8381877323636665e+32
1.3326515823161616e+35,3.855985409371286e+29,1.9989113226200435e+32
1.4489404389794196e+35,4.26777412813836e+29,2.173693868994704e+32
1.5753768078382838e+35,4.7222390542239795e+29,2.3637664740066813e+32
1.712846173596231e+35,5.223814897035124e+29,2.5704672839595904e+32
1.86231128946797e+35,5.776718763647181e+29,2.79525222961976e+32
2.0248189197271217e+35,6.386776025452534e+29,3.039701091449544e+32
2.2015071706170964e+35,7.058949867195743e+29,3.305537362561482e+32
2.3936134609665036e+35,7.79652543562227e+29,3.594628344430332e+32
2.6024831883305038e+35,8.435594763989828e+29,3.909020364224519e+32
2.8295791513505697e+35,8.781118609279946e+29,4.250902687780205e+32
3.0764917943212554e+35,9.104292268397686e+29,4.622648364745176e+32
3.3449503457107494e+35,9.42871411362195e+29,5.026863124130753e+32
3.636834928642787e+35,9.779299358373812e+29,5.4663814449044875e+32
3.954189728154468e+35,1.0156538721164693e+30,5.944284775992931e+32
4.299237307445596e+35,1.0563405669515263e+30,6.4639261368469396e+32
4.674394173381962e+35,1.1008127108376777e+30,7.028951567940955e+32
5.082287700264087e+35,1.150320740599403e+30,7.64331981937552e+32
5.5257745303853274e+35,1.2052395396634336e+30,8.311346943422217e+32
6.007960580245892e+35,1.266330149682688e+30,9.037718979854083e+32
6.532222792534301e+35,1.3350498296173606e+30,9.827531354166276e+32
7.102232786214159e+35,1.4116259790883227e+30,1.068632910163236e+33
7.721982570347313e+35,1.4975580579620147e+30,1.1620136968189733e+33
8.39581250173763e+35,1.5938352651409775e+30,1.2635511026702745e+33
9.128441682193986e+35,1.7020067701657482e+30,1.3739579091487637e+33
9.925001008296766e+35,1.8246796414376288e+30,1.494008759868029e+33
1.079106910512862e+36,1.9618032254203387e+30,1.6245471324559485e+33
1.1732711395627846e+36,2.116380529076186e+30,1.7664888013199993e+33
1.2756522579182839e+36,2.2917073330011437e+30,1.9208313698297648e+33
1.3869672816962148e+36,2.4888898742024356e+30,2.088658177154216e+33
1.5079957947434717e+36,2.71151894559574e+30,2.2711495780552004e+33
1.6395854083759685e+36,2.9619674619559213e+30,2.4695835519370566e+33
1.782657697541321e+36,3.245632837676298e+30,2.685359145393619e+33
1.9382146549785694e+36,3.56466186162715e+30,2.919986190428719e+33
2.1073457085760098e+36,3.925750506762501e+30,3.175120154131631e+33
2.2912353510725198e+36,4.3331922574186226e+30,3.452550388744477e+33
2.4911714355362307e+36,4.792516330511692e+30,3.7542272140917625e+33
2.708554194717127e+36,5.310592538231933e+30,4.082270866641332e+33
2.944906047439724e+36,5.895086455538526e+30,4.438988775805869e+33
3.201882260713925e+36,6.555066314453281e+30,4.826888200643806e+33
3.4812825422351123e+36,7.298854578017954e+30,5.248697241905113e+33
3.7850636444604026e+36,8.13669857143796e+30,5.70738545164329e+33
4.115353068532492e+36,9.081669689907549e+30,6.206175255327846e+33
4.4744639640251577e+36,1.0146270469973383e+31,6.748578223423123e+33
4.864911328859329e+36,1.134566884697994e+31,7.33841081458187e+33
5.2894296228442655e+36,1.2695562099923003e+31,7.979824154687606e+33
5.750991918198519e+36,1.4216531222965522e+31,8.677333286426141e+33
6.252830721169513e+36,1.5927700295289516e+31,9.435847378603366e+33
6.798460610573863e+36,1.7853532851502037e+31,1.0260711074533054e+34
7.391702851805275e+36,2.002112478063454e+31,1.1157731621722784e+34
8.0367121586918e+36,2.2459109915369703e+31,1.2133227600013355e+34
8.73800579062646e+36,2.5202320609364727e+31,1.3194072927408184e+34
9.500495188750187e+36,2.828867375499139e+31,1.434774393046597e+34
1.0329520372747931e+37,3.1761523462778417e+31,1.5602377600746917e+34
1.1230887339152589e+37,3.5670324351323693e+31,1.6966810681057772e+34
1.2210908723072027e+37,4.0070996598423687e+31,1.8450654334502715e+34
1.3276448008109671e+37,4.503024164364406e+31,2.0064401968465992e+34
1.443496759409849e+37,5.062078987576303e+31,2.1819422571161653e+34
1.5694581059286008e+37,5.693047466766567e+31,2.372810973114652e+34
1.7064109982983487e+37,6.406056956719118e+31,2.580396256122887e+34
1.8553145726631045e+37,7.21304471625867e+31,2.806157920251764e+34
2.017211660595641e+37,8.128206586401745e+31,3.0516977238390316e+34
2.1932360924660907e+37,9.168565537799244e+31,3.318747706844124e+34
2.3846206381116943e+37,1.0354747970906182e+32,3.6091994847346544e+34
2.5927056404193936e+37,1.171182861256128e+32,3.9251080996218366e+34
2.81894840228573e+37,1.3270901865044349e+32,4.268709094932844e+34
3.0649333926946887e+37,1.5070626640047198e+32,4.642442102042157e+34
3.332383343390765e+37,1.7159919052800757e+32,5.048958091254202e+34
3.6231713138617002e+37,1.960122943867204e+32,5.491146968081968e+34
3.9393338091268226e+37,2.2473784736742756e+32,5.972158820361666e+34
4.28308504220013e+37,2.4767344931276003e+32,6.495570318920472e+34
4.656832441113877e+37,2.587281511654389e+32,7.065153374540224e+34
5.063193509104584e+37,2.9750474077746617e+32,7.6840880901192985e+34
5.505014156040127e+37,3.440333683235515e+32,8.357398758970682e+34
5.9853886294702575e+37,4.003469080297129e+32,9.089913169092558e+34
6.507681184885716e+37,4.6903693278430516e+32,9.886890996123517e+34
7.075549646951456e+37,5.5353219785039065e+32,1.0754075839358625e+35
7.692971026722797e+37,6.580941594684031e+32,1.1697754002820395e+35
8.364269374252108e+37,7.884948482909703e+32,1.272479765209325e+35
9.094146061649101e+37,9.517401280718742e+32,1.3842732928334323e+35
9.88771270867909e+37,1.1574193654154299e+33,1.5059825146196378e+35
1.0750526981490472e+38,1.417090227598647e+33,1.6385135480041167e+35
1.168863151518429e+38,1.7408742077603987e+33,1.7828627434186976e+35
1.2708596232816263e+38,2.141444430489011e+33,1.9401228982492982e+35
1.381756435720827e+38,2.648540133052027e+33,2.111497410201415e+35
1.5023302437808488e+38,3.2951461015210265e+33,2.2983278735345544e+35
1.6334254742958426e+38,4.1224115857380065e+33,2.502101157410533e+35
1.7759602398497692e+38,5.1824006519001147e+33,2.724471318253539e+35
1.930932768687797e+38,6.541104921858361e+33,2.9672945632207058e+35
2.099428395709873e+38,8.282143145862269e+33,3.232648832352443e+35
2.2826271635072e+38,1.0511518919249005e+34,3.522879058867017e+35
2.4818120866747417e+38,1.3363333780127455e+34,3.840639426720859e+35
2.69837813727805e+38,1.700713120023622e+34,4.188942434645836e+35
2.9338420144032505e+38,2.1656963320293227e+34,4.571235239883484e+35
3.1898527662102757e+38,2.7582891572625376e+34,4.991468640914698e+35
3.468203338879855e+38,3.512580001361491e+34,5.4542121742191704e+35
3.7708431333361586e+38,4.471462482300611e+34,5.964767676728523e+35
4.099891657684909e+38,5.688894628550856e+34,6.529308027093016e+35
4.457653370980422e+38,7.232781793272569e+34,7.155083734509608e+35
4.8466338222784944e+38,9.188495322613955e+34,7.850636691582492e+35
5.269557198003366e+38,1.166331784880308e+35,8.626092211743687e+35
5.729385400520047e+38,1.4792199523671074e+35,9.493515261388668e+35
6.229338791526919e+38,1.8744893513101476e+35,1.0467359878139515e+36
6.772918745542902e+38,2.3733646268062515e+35,1.1564950850220548e+36
7.363932171440352e+38,3.002524205816424e+35,1.2807223166869674e+36
8.006518173757813e+38,3.795456827785866e+35,1.4219560733555e+36
8.705177040512532e+38,4.794274005796562e+35,1.5832912605264087e+36
9.46480176052602e+38,6.0514218244121605e+35,1.7684873492753503e+36
1.0290712290991171e+39,7.63267030526864e+35,1.9821512367588516e+36
1.1188692815270464e+39,9.620215506991027e+35,2.2299403613026725e+36
1.2165032251856617e+39,1.2116490218342875e+36,2.5187990087901428e+36
1.3226568298196185e+39,1.5248902538497716e+36,2.857282550729726e+36
1.43807353178327e+39,1.917538231974043e+36,3.2559343855929494e+36
1.5635616406242312e+39,2.4090766947168792e+36,3.727736389105695e+36
1.699999999999985e+39,3.023386337753382e+36,4.2886389639347006e+36
