number density (cm^-3),pressure (erg/cm^3),energy density(erg/cm^3)
9.999999999999999e+31,3.4757003982600004e+25,1.4907072049740003e+29
1.0876937229187028e+32,3.893940376196293e+25,1.621465195834517e+29
1.1830776348767479e+32,4.361923456838356e+25,1.76369285837155e+29
1.2868261171809437e+32,4.885422274465156e+25,1.9183987006715568e+29
1.3996726901455595e+32,5.470620398027809e+25,2.0866755545330134e+29
1.52241519921206e+32,6.125297340994153e+25,2.269715291404588e+29
1.655921455858984e+32,6.856825801242182e+25,2.468812099847274e+29
1.8011353731842168e+32,7.675758079106153e+25,2.6853745208190396e+29
1.959083639539308e+32,8.591029376839857e+25,2.9209360567763443e+29
2.1308829773996322e+32,9.614458862008258e+25,3.177163430898449e+29
2.317748038791896e+32,1.0757719634753085e+26,3.4558696797151656e+29
2.5209999931010795e+32,1.2035116155795597e+26,3.759029330660896e+29
2.7420758679741375e+32,1.3464352155833681e+26,4.088781917617402e+29
2.982538709362323e+32,1.5059780766029097e+26,4.447468097059229e+29
3.2440886325354488e+32,1.68445886037028e+26,4.8376233107006775e+29
3.528574842200726e+32,1.8837549368591316e+26,5.2620084123233804e+29
3.8380087067105816e+32,2.1063009753280017e+26,5.723628941901707e+29
4.174577978796429e+32,2.3550289010973775e+26,6.2257494861638634e+29
4.540662263371522e+32,2.632673467203288e+26,6.771927487945519e+29
4.938849841763034e+32,2.942907750381259e+26,7.366027472474768e+29
5.3719559713236804e+32,3.289262959293993e+26,8.012254544207724e+29
5.8430427898044114e+32,3.6760668798201845e+26,8.71518406123774e+29
6.355440965215644e+32,4.107793098149328e+26,9.47979278195839e+29
6.912773244245437e+32,4.59014480285074e+26,1.0311490881640445e+30
7.51898006572612e+32,5.1283310158736284e+26,1.1216170133915792e+30
8.178347420241157e+32,5.7295983761600564e+26,1.2200233076644213e+30
8.895537152844674e+32,6.399764399445345e+26,1.3270649176964621e+30
9.67561992313926e+32,7.147920666605474e+26,1.4434995220778876e+30
1.0524111055745718e+33,7.983187320873477e+26,1.5701512060695465e+30
1.1447009534633939e+33,8.914528315449143e+26,1.7079172912260875e+30
1.2450840417011879e+33,9.954560233418235e+26,1.8577745470014808e+30
1.354270096664631e+33,1.1114623680951769e+27,2.0207822447200393e+30
1.4730310832786236e+33,1.2408843410799913e+27,2.1980946670488381e+30
1.6022066629462962e+33,1.3850970858929208e+27,2.3909691812333085e+30
1.7427101301052082e+33,1.5458928385511303e+27,2.600769823522049e+30
1.895534869382271e+33,1.7254527909272919e+27,2.828985183618322e+30
2.0617613790006196e+33,1.9255015532945895e+27,3.0772295105655517e+30
2.2425649100951826e+33,2.1485460604289797e+27,3.347261980922859e+30
2.4392237759482752e+33,2.3971874108410986e+27,3.640994579182302e+30
2.653128389892995e+33,2.674433578409282e+27,3.960509173003083e+30
2.885791095784016e+33,2.9833328540227e+27,4.308068495201288e+30
3.1388568605389596e+33,3.327488370592094e+27,4.6861349692064266e+30
3.414114904348533e+33,3.7112099257956403e+27,5.097388862211951e+30
3.7135113507830865e+33,4.1383428706037936e+27,5.544741769309057e+30
4.0391629862341166e+33,4.6146164206288374e+27,6.031364317837767e+30
4.393372225972411e+33,5.144545074450461e+27,6.560705268278053e+30
4.7786433926355607e+33,5.735354918732911e+27,7.136514238524295e+30
5.197700422236634e+33,6.392339219385911e+27,7.762872935043987e+30
5.653506122878678e+33,7.124452731883866e+27,8.444221799393818e+30
6.149283122337593e+33,7.939018711216278e+27,9.185387123745377e+30
6.688536652616521e+33,8.846493423744429e+27,9.991623872428885e+30
7.275079332562663e+33,9.855507452663284e+27,1.086864636483314e+31
7.913058123763993e+33,1.0979315517607152e+28,1.1822672122973207e+31
8.606983650308945e+33,1.2229158591085517e+28,1.28604642393805e+31
9.361762089704943e+33,1.3619375845294854e+28,1.3989378872364208e+31
1.0182729860430344e+34,1.516462965594068e+28,1.5217421562285464e+31
1.1075691351366925e+34,1.68850013898091e+28,1.655330165039082e+31
1.204695995986677e+34,1.8796274212669983e+28,1.800648632805584e+31
1.3103402728600035e+34,2.0921211039246085e+28,1.9587271911806511e+31
1.4252488896774061e+34,2.3283998249063708e+28,2.1306897566196676e+31
1.5502342708989654e+34,2.590773663622655e+28,2.317753725137558e+31
1.6861800855102567e+34,2.882393735625494e+28,2.521246911306392e+31
1.8340474947200277e+34,3.206405008441211e+28,2.742611150832243e+31
1.9948819475417475e+34,3.566057600251098e+28,2.983419069700478e+31
2.1698205723049953e+34,3.9655955376747705e+28,3.2453751532079337e+31
2.3601002163560113e+34,4.4092942190146684e+28,3.530341864317931e+31
2.567066190789506e+34,4.901579992081717e+28,3.8403388365000135e+31
2.792181782038571e+34,5.447734028214867e+28,4.177567043421367e+31
3.037038597571311e+34,6.054005637058948e+28,4.544418650509319e+31
3.3033678188401363e+34,6.726400704938052e+28,4.943496685165132e+31
3.593052441044063e+34,7.471898915908991e+28,5.377632683386292e+31
3.9081405862413495e+34,8.297783940436813e+28,5.849911255306959e+31
4.250859983938536e+34,9.21459523923895e+28,6.363678980906088e+31
4.623633721536243e+34,1.02295352164409e+29,6.922587714522855e+31
5.029097375990213e+34,1.1354284034492027e+29,7.53060326843676e+31
5.470117647811474e+34,1.2600402290796697e+29,8.192040583225482e+31
5.949812629151361e+34,1.39800172473222e+29,8.911597862360131e+31
6.471573849270359e+34,1.550550521493159e+29,9.69438542315593e+31
7.0390902532561985e+34,1.7196429839664053e+29,1.054595820270439e+32
7.656374283524989e+34,1.9065261087428315e+29,1.147236501639479e+32
8.327790248506312e+34,2.1133225198129218e+29,1.2480185962165622e+32
9.0580851790839e+34,2.3418412349524516e+29,1.3576577240224069e+32
9.852422390952492e+34,2.5944720804784782e+29,1.4769325667071053e+32
1.0716417990182705e+35,2.8737812821560744e+29,1.6066919218060257e+32
1.165618058009479e+35,3.1818355427984894e+29,1.7478527689538714e+32
1.2678354450175989e+35,3.522284279727342e+29,1.9014239214789478e+32
1.3790166552394823e+35,3.897916248004597e+29,2.0684935534772085e+32
1.4999477597043297e+35,4.312827672412702e+29,2.250248081396487e+32
1.6314837629363705e+35,4.7702542097687705e+29,2.4479793333563114e+32
1.7745546479896754e+35,5.274088318861742e+29,2.663094602028161e+32
1.9301719515945782e+35,5.829803636621342e+29,2.897118119502966e+32
2.099435915903165e+35,6.442512256922408e+29,3.151717686231602e+32
2.2835432673979506e+35,7.116642930230418e+29,3.428699225887549e+32
2.4837956779620155e+35,7.858772107240191e+29,3.7300341113454365e+32
2.7016089679318887e+35,8.607742642760081e+29,4.0577528154605834e+32
2.938523116200391e+35,9.10030142223938e+29,4.4143897599052316e+32
3.196213148142671e+35,9.438389570109506e+29,4.802342112445121e+32
3.4765009783450094e+35,9.76508866918409e+29,5.224347968958765e+32
3.7813682918665964e+35,1.0092603247189732e+30,5.6833924804151794e+32
4.1129705551071146e+35,1.0435478265623911e+30,6.1827210894073675e+32
4.473652255339461e+35,1.0805540077309484e+30,6.725872562088832e+32
4.8659634766538294e+35,1.119681603235055e+30,7.316687703360589e+32
5.2926779295080385e+35,1.1620963130674666e+30,7.95934964080193e+32
5.7568125613562504e+35,1.2090983787141577e+30,8.658411295154917e+32
6.2616488870067345e+35,1.2596394330350412e+30,9.418817663807818e+32
6.810756189518107e+35,1.3153784744370377e+30,1.0245953479287965e+33
7.408016755668548e+35,1.3763594782685074e+30,1.1145679649102651e+33
8.057653324417254e+35,1.444065504241905e+30,1.2124359928249391e+33
8.764258942423666e+35,1.5194468926938906e+30,1.318892920934855e+33
9.53282943770833e+35,1.6013881232125178e+30,1.434692538182005e+33
1.036879874104998e+36,1.6930228437972323e+30,1.560654192269531e+33
1.1278077304847412e+36,1.7948870352921923e+30,1.6976717877751024e+33
1.2267093891074409e+36,1.907194271768215e+30,1.8467124398314833e+33
1.3342841023776004e+36,2.031221856117933e+30,2.0088356048191134e+33
1.451292442746332e+36,2.1693214222535473e+30,2.185185614300465e+33
1.5785616800945365e+36,2.321970731316465e+30,2.3770154837630594e+33
1.7169916306788285e+36,2.491938933039998e+30,2.58567959064921e+33
1.8675610189933094e+36,2.679758835039275e+30,2.812659765569694e+33
2.031334397526679e+36,2.8887109004745815e+30,3.0595617766124986e+33
2.2094696733386138e+36,3.1196939649384366e+30,3.3281335081169283e+33
2.403226294669647e+36,3.3752063524920677e+30,3.6202804983780924e+33
2.6139741554653487e+36,3.65883118711204e+30,3.938070092642934e+33
2.843203280771377e+36,3.9728255265801753e+30,4.2837536485584177e+33
3.092534361476889e+36,4.3203180590053324e+30,4.659781870732081e+33
3.3637302128888114e+36,4.7058599486192084e+30,5.068816388140733e+33
3.658708238151152e+36,5.13110477949231e+30,5.513757061162605e+33
3.9795539846279546e+36,5.60288370025494e+30,5.997755492838129e+33
4.3285358890959396e+36,6.124900109149433e+30,6.524241333476716e+33
4.7081213159979793e+36,6.703012289267411e+30,7.096945555350781e+33
5.1209940021507445e+36,7.343113923316311e+30,7.719924327367838e+33
5.570073031243691e+36,8.053117980644016e+30,8.397596793697617e+33
6.058533472282514e+36,8.842462248082213e+30,9.134759026802486e+33
6.589828827894544e+36,9.719583817833371e+30,9.936641801623065e+33
7.167715451209609e+36,1.069660100302583e+31,1.0808924910375843e+34
7.796279103948091e+36,1.1789072279663178e+31,1.1757793155185177e+34
8.479963843486588e+36,1.3011972621810159e+31,1.2789972852203555e+34
9.223603443137919e+36,1.4386267255984489e+31,1.3912781240552946e+34
1.003245556779245e+37,1.593943455817752e+31,1.5134180216521406e+34
1.0912238946548638e+37,1.769968988421113e+31,1.6462836308518892e+34
1.1869173805149951e+37,1.9708712578339289e+31,1.7908169885786038e+34
1.2910025844092697e+37,2.201323755787642e+31,1.9480436266962502e+34
1.4042154073337857e+37,2.4673915975721014e+31,2.119080220959062e+34
1.5273562841826883e+37,2.776976674009552e+31,2.305141611971265e+34
1.6612958429659444e+37,3.1394359276104655e+31,2.5075479105179766e+34
1.8069810603049927e+37,3.567108099575121e+31,2.727739050038311e+34
1.9654419567267232e+37,4.075430096762263e+31,2.9672814881508074e+34
2.1377988790927093e+37,4.683849186782954e+31,3.227876869464247e+34
2.325270421651779e+37,5.417176292541842e+31,3.511384776057694e+34
2.5291820417191656e+37,6.306817967348883e+31,3.8198244413792964e+34
2.7509754308966454e+37,7.392675280186007e+31,4.155399871851469e+34
2.9922187080898545e+37,8.725461999492277e+31,4.5205080382421585e+34
3.2546175063892447e+37,1.0369787767033433e+32,4.917764699091188e+34
3.540027032200904e+37,1.2408011196773007e+32,5.3500180274446485e+34
3.850465181887447e+37,1.4059304877804793e+32,5.820430885298766e+34
4.1881268086559985e+37,1.642622765490548e+32,6.33222181297593e+34
4.555399240562668e+37,1.996076665913425e+32,6.8891056189725505e+34
4.954879159348641e+37,2.4376422513937996e+32,7.495171613014285e+34
5.389390959444215e+37,2.9904827009244292e+32,8.154816944845863e+34
5.86200671694228e+37,3.68314072848735e+32,8.872853842505211e+34
6.376067909725391e+37,4.553213604339999e+32,9.654539917154623e+34
6.935209042311682e+37,5.645677640746301e+32,1.0505628518746742e+35
7.543383342451447e+37,7.01968343337883e+32,1.143243070550807e+35
8.204890711153943e+37,8.747644120978055e+32,1.2441854892647065e+35
8.924408123756115e+37,1.0921948127473363e+33,1.3541502660394012e+35
9.707022696974205e+37,1.365871786393777e+33,1.4739723354643297e+35
1.055826765572822e+38,1.710242620085198e+33,1.6045710688452414e+35
1.1484161454031155e+38,2.1436700400799637e+33,1.746961046999961e+35
1.2491250326534609e+38,2.6891828456717553e+33,1.9022654145873094e+35
1.3586654571577891e+38,3.363407209976354e+33,2.0717226754157706e+35
1.4778118892969971e+38,4.193135108341626e+33,2.256693855108455e+35
1.6074067156429729e+38,5.22935320580948e+33,2.458701314389e+35
1.7483661947822298e+38,6.528969277869578e+33,2.6794391222224226e+35
1.9016869354278898e+38,8.162284002964562e+33,2.9208151034484986e+35
2.06845294262142e+38,1.0217509274475826e+34,3.1849618095904118e+35
2.2498432818420386e+38,1.280430075828128e+34,3.474299656818928e+35
2.4471404152103995e+38,1.6060108679205474e+34,3.791554785305093e+35
2.6617392687250196e+38,2.0157119489497406e+34,4.13983685013195e+35
2.895157094638423e+38,2.5311356054379975e+34,4.522693377928214e+35
3.149044198701761e+38,3.179068705082648e+34,4.944195962498829e+35
3.425195608121462e+38,3.9930238536250656e+34,5.409030958345072e+35
3.7255637627224234e+38,5.014848432851168e+34,5.9226307755614905e+35
4.052272319046564e+38,6.296693183134424e+34,6.491319967326264e+35
4.407631164984162e+38,7.903185354689217e+34,7.122468223304346e+35
4.794152751094123e+38,9.914820670039806e+34,7.824734322045967e+35
5.214569854078509e+38,1.2431595414025453e+35,8.608324975512806e+35
5.6718548980022905e+38,1.5577802763167106e+35,9.485328364563911e+35
6.169240969862791e+38,1.95073745965149e+35,1.0470100038102085e+36
6.710244678092648e+38,2.4410889142754616e+35,1.1579742739861929e+36
7.298691015610005e+38,3.0524423612573214e+35,1.2834731467199355e+36
7.938740403202134e+38,3.814005778623124e+35,1.42596420043609e+36
8.634918104444054e+38,4.7618869717997196e+35,1.5884052785505565e+36
9.392146220120864e+38,5.940675970783464e+35,1.7743654218974342e+36
1.0215778488360084e+39,7.405394295922946e+35,1.9881617394254138e+36
1.1111638136517178e+39,9.223931970167152e+35,2.235024368317483e+36
1.2086059052433808e+39,1.1480055132294027e+36,2.521317031859989e+36
1.314593056615702e+39,1.4276436595315143e+36,2.8547449570403173e+36
1.42987461587341e+39,1.7739639558056997e+36,3.244707354682512e+36
1.5552656442462998e+39,2.2025472768073955e+36,3.7026867864176776e+36
1.6916526787178125e+39,2.7324180647798245e+36,4.2426221170703485e+36
1.8399999999999738e+39,3.3869527015480654e+36,4.881565656737572e+36
